Time (s),Temperature (慢),Power (W)
0.269368,79.649297,0.00019175597
0.538736,79.680881,0.0001917559
0.808104,79.709426,0.00019175608
1.077472,79.735971,0.0001917559
1.34684,79.761518,0.00019175604
1.6162081,79.786156,0.00019175617
1.8855761,79.810353,0.00019175577
2.1549441,79.834016,0.00019175563
2.4243121,79.85693,0.00019175568
2.6936801,79.879862,0.00019175536
2.9630481,79.902988,0.00019175521
3.2324161,79.924991,0.00019175469
3.5017841,79.947012,0.00019175507
3.7711521,79.969114,0.00019175485
4.0405201,79.99032,0.00019175487
4.3098881,80.012124,0.00019175487
4.5792562,80.033349,0.00019175467
4.8486242,80.054167,0.00019175429
5.1179922,80.07483,0.000191754
5.3873602,80.0956,0.00019175442
5.6567282,80.115667,0.00019175386
5.9260962,80.136476,0.00019175364
6.1954642,80.156449,0.00019175368
6.4648322,80.176076,0.00019175346
6.7342002,80.195732,0.00019175339
7.0035682,80.215187,0.00019175276
7.2729362,80.234177,0.0001917533
7.5423043,80.253352,0.00019175339
7.8116723,80.27245,0.00019175323
8.0810403,80.291168,0.00019175319
8.3504083,80.309749,0.00019175312
8.6197763,80.328166,0.00019175301
8.8891443,80.345993,0.00019175283
9.1585123,80.364543,0.00019175283
9.4278803,80.38239,0.00019175276
9.6972483,80.399599,0.0001917529
9.9666163,80.417815,0.00019175285
10.235984,80.434616,0.0001917526
10.505352,80.452068,0.00019175252
10.77472,80.4695,0.00019175227
11.044088,80.486346,0.00019175218
11.313456,80.502729,0.00019175211
11.582824,80.519467,0.00019175175
11.852192,80.53604,0.00019175204
12.12156,80.552593,0.00019175186
12.390928,80.568517,0.00019175209
12.660296,80.584697,0.00019175177
12.929664,80.600097,0.00019175157
13.199033,80.616427,0.00019175173
13.468401,80.63193,0.00019175151
13.737769,80.647041,0.0001917518
14.007137,80.662527,0.00019175173
14.276505,80.677727,0.00019175169
14.545873,80.692568,0.00019175142
14.815241,80.70748,0.00019175126
15.084609,80.722144,0.00019175095
15.353977,80.736867,0.00019175124
15.623345,80.751587,0.00019175128
15.892713,80.765775,0.00019175121
16.162081,80.779874,0.00019175115
16.431449,80.794103,0.00019175126
16.700817,80.808197,0.00019175099
16.970185,80.821884,0.00019175088
17.239553,80.835375,0.00019175083
17.508921,80.849309,0.00019175065
17.778289,80.862775,0.00019175088
18.047657,80.876325,0.00019175065
18.317025,80.889453,0.00019175061
18.586393,80.902471,0.00019175063
18.855761,80.915733,0.00019175032
19.125129,80.928332,0.00019175036
19.394497,80.940849,0.00019175059
19.663865,80.953789,0.00019175038
19.933233,80.966205,0.0001917502
20.202601,80.978359,0.00019175009
20.471969,80.990969,0.00019174998
20.741337,81.003189,0.00019174996
21.010705,81.015112,0.00019174982
21.280073,81.027224,0.00019174998
21.549441,81.038753,0.00019174996
21.818809,81.050832,0.00019175
22.088177,81.062367,0.00019175009
22.357545,81.07375,0.00019174982
22.626913,81.085057,0.00019174971
22.896281,81.097087,0.00019174971
23.165649,81.108072,0.0001917498
23.435017,81.118945,0.00019174953
23.704385,81.129888,0.00019174964
23.973753,81.141275,0.00019174953
24.243121,81.151722,0.00019174964
24.512489,81.162665,0.0001917496
24.781857,81.173157,0.00019174926
25.051225,81.183898,0.00019174949
25.320593,81.194213,0.00019174917
25.589961,81.204752,0.00019174931
25.859329,81.214884,0.00019174976
26.128697,81.224918,0.00019174944
26.398065,81.235075,0.00019174926
26.667433,81.244698,0.00019174933
26.936801,81.255188,0.00019174935
27.206169,81.264902,0.00019174933
27.475537,81.274383,0.00019174933
27.744905,81.284531,0.00019174902
28.014273,81.293915,0.00019174893
28.283641,81.303282,0.00019174906
28.553009,81.31265,0.00019174897
28.822377,81.321839,0.00019174902
29.091745,81.331399,0.00019174902
29.361113,81.34029,0.00019174895
29.630481,81.349692,0.00019174908
29.899849,81.358499,0.00019174893
30.169217,81.367314,0.00019174893
30.438585,81.376238,0.00019174904
30.707953,81.384727,0.00019174886
30.977321,81.393083,0.00019174872
31.246689,81.402139,0.00019174884
31.516057,81.410781,0.00019174872
31.785425,81.418758,0.00019174834
32.054793,81.426992,0.00019174839
32.324161,81.435867,0.00019174834
32.593529,81.443573,0.00019174863
32.862897,81.452343,0.00019174852
33.132265,81.460213,0.00019174837
33.401633,81.467814,0.0001917485
33.671001,81.47603,0.00019174837
33.940369,81.4835,0.00019174859
34.209737,81.491307,0.00019174834
34.479105,81.499136,0.00019174819
34.748473,81.489064,0.0
35.017841,81.465289,0.0
35.287209,81.445861,0.0
35.556577,81.427255,0.0
35.825945,81.409907,0.0
36.095313,81.393042,0.0
36.364681,81.376903,0.0
36.634049,81.360823,0.0
36.903417,81.345327,0.0
37.172785,81.329539,0.0
37.442153,81.314838,0.0
37.711521,81.299873,0.0
37.980889,81.284879,0.0
38.250257,81.270829,0.0
38.519625,81.2562,0.0
38.788993,81.241944,0.0
39.058361,81.227692,0.0
39.327729,81.213766,0.0
39.597097,81.199543,0.0
39.866465,81.185919,0.0
40.135833,81.171711,0.0
40.405201,81.158692,0.0
40.674569,81.14496,0.0
40.943937,81.131988,0.0
41.213305,81.118571,0.0
41.482673,81.105032,0.0
41.752041,81.092291,0.0
42.021409,81.079807,0.0
42.290777,81.06694,0.0
42.560146,81.054123,0.0
42.829514,81.041976,0.0
43.098882,81.029179,0.0
43.36825,81.016759,0.0
43.637618,81.004469,0.0
43.906986,80.992449,0.0
44.176354,80.980645,0.0
44.445722,80.968324,0.0
44.71509,80.956673,0.0
44.984458,80.944951,0.0
45.253826,80.933359,0.0
45.523194,80.921902,0.0
45.792562,80.910209,0.0
46.06193,80.899331,0.0
46.331298,80.888142,0.0
46.600666,80.877143,0.0
46.870034,80.865893,0.0
47.139402,80.854865,0.0
47.40877,80.843813,0.0
47.678138,80.833449,0.0
47.947506,80.822853,0.0
48.216874,80.811982,0.0
48.486242,80.801637,0.0
48.75561,80.791282,0.0
49.024978,80.780511,0.0
49.294346,80.770352,0.0
49.563714,80.760242,0.0
49.833082,80.750135,0.0
50.10245,80.740493,0.0
50.371818,80.730715,0.0
50.641186,80.720673,0.0
50.910554,80.710998,0.0
51.179922,80.701709,0.0
51.44929,80.691972,0.0
51.718658,80.68268,0.0
51.988026,80.673377,0.0
52.257394,80.663911,0.0
52.526762,80.654075,0.0
52.79613,80.645367,0.0
53.065498,80.636256,0.0
53.334866,80.627373,0.0
53.604234,80.618041,0.0
53.873602,80.609326,0.0
54.14297,80.600593,0.0
54.412338,80.592053,0.0
54.681706,80.583343,0.0
54.951074,80.57507,0.0
55.220442,80.566555,0.0
55.48981,80.558378,0.0
55.759178,80.549747,0.0
56.028546,80.542015,0.0
56.297914,80.533202,0.0
56.567282,80.524951,0.0
56.83665,80.517039,0.0
57.106018,80.509266,0.0
57.375386,80.50106,0.0
57.644754,80.493593,0.0
57.914122,80.485409,0.0
58.18349,80.478328,0.0
58.452858,80.470252,0.0
58.722226,80.4625,0.0
58.991594,80.455,0.0
59.260962,80.447792,0.0
59.53033,80.440676,0.0
59.799698,80.433226,0.0
60.069066,80.425935,0.0
60.338434,80.418875,0.0
60.607802,80.411534,0.0
60.87717,80.40451,0.0
61.146538,80.397335,0.0
61.415906,80.390096,0.0
61.685274,80.3837,0.0
61.954642,80.377055,0.0
62.22401,80.369766,0.0
62.493378,80.362919,0.0
62.762746,80.356691,0.0
63.032114,80.350227,0.0
63.301482,80.343639,0.0
63.57085,80.337092,0.0
63.840218,80.330664,0.0
64.109586,80.32444,0.0
64.378954,80.31802,0.0
64.648322,80.311509,0.0
64.91769,80.305637,0.0
65.187058,80.299436,0.0
65.456426,80.293611,0.0
65.725794,80.28732,0.0
65.995162,80.281607,0.0
66.26453,80.275292,0.0
66.533898,80.269378,0.0
66.803266,80.263714,0.0
67.072634,80.25803,0.0
67.342002,80.251935,0.0
67.61137,80.246207,0.0
67.880738,80.240841,0.0
68.150106,80.235325,0.0
68.419474,80.229474,0.0
68.688842,80.22392,0.0
68.95821,80.21855,0.0
