[Header]
DATATYPE,TIME,1
STARTUPAXIS, X, 1, LINEAR, AUTO
STARTUPAXIS, Y1, 4, LINEAR, AUTO
STARTUPAXIS, Y2, 2, LINEAR, AUTO
INFO,[Header]
INFO,DATATYPE,TIME,1
INFO,STARTUPAXIS, X, 1, LINEAR, AUTO
INFO,STARTUPAXIS, Y1, 4, LINEAR, AUTO
INFO,STARTUPAXIS, Y2, 2, LINEAR, AUTO
[Data]
Time (sec), Power (W), Resistance (Ohm), Temperature (K)
1.3019454,0.0055823913,176.34898,100.63348
2.6038908,0.005582642,174.5217,101.81343
3.9058361,0.0055828434,173.05937,102.77521
5.2077815,0.0055830535,171.6721,103.70233
6.5097269,0.0055832627,170.34595,104.60225
7.8116723,0.0055834757,169.07722,105.47592
9.1136176,0.0055836834,167.86093,106.3254
10.415563,0.0055838973,166.69458,107.15116
11.717508,0.0055841045,165.57394,107.95507
13.019454,0.0055843185,164.49684,108.73767
14.321399,0.0055845242,163.46062,109.49992
15.623344,0.0055847348,162.46269,110.24284
16.92529,0.0055849401,161.50127,110.96695
18.227235,0.0055851463,160.57411,111.67315
19.529181,0.0055853501,159.67873,112.36266
20.831126,0.0055855472,158.81422,113.03551
22.133071,0.0055857544,157.97966,113.6918
23.435017,0.0055859485,157.17218,114.33321
24.736962,0.0055861407,156.3909,114.95989
26.038908,0.0055863329,155.63547,115.57164
27.340853,0.0055865241,154.90326,116.17009
28.642798,0.0055867134,154.19489,116.7543
29.944744,0.0055869007,153.50917,117.3248
31.246689,0.0055870852,152.84491,117.88219
32.548634,0.0055872662,152.20181,118.42631
33.85058,0.0055874468,151.58145,118.95545
35.152525,0.0055876235,150.98515,119.46805
36.454471,0.0055877953,150.42166,119.95607
37.756416,0.0055879517,149.91843,120.39491
39.058361,0.0055880742,149.55504,120.71359
40.360307,0.0055881502,149.38112,120.86664
41.662252,0.0055881923,149.30797,120.93112
42.964197,0.0055882204,149.26805,120.96633
44.266143,0.0055882557,149.23857,120.99235
45.568088,0.0055882915,149.21025,121.01735
46.870034,0.0055883269,149.17943,121.04457
48.171979,0.0055883637,149.14192,121.07771
49.473924,0.0055884029,149.08794,121.12544
50.77587,0.0055884494,148.99628,121.20655
52.077815,0.0055885075,148.8233,121.35988
53.37976,0.005588599,148.53447,121.61669
54.681706,0.0055887219,148.14006,121.96895
55.983651,0.0055888579,147.68584,122.37689
57.285597,0.0055890177,147.20857,122.80816
58.587542,0.0055891683,146.72578,123.2472
59.889487,0.0055893198,146.24646,123.68587
61.191433,0.0055894776,145.77388,124.12113
62.493378,0.0055896335,145.30925,124.55174
63.795323,0.0055897932,144.85414,124.97614
65.097269,0.0055899457,144.40738,125.39529
66.399214,0.0055900948,143.97063,125.80749
67.70116,0.0055902468,143.5424,126.21402
69.003105,0.005590395,143.12418,126.61334
70.30505,0.0055905402,142.71429,127.00691
71.606996,0.0055906845,142.31316,127.39422
72.908941,0.0055908345,141.9211,127.77483
74.210886,0.0055909701,141.53627,128.15041
75.512832,0.0055911148,141.16028,128.5193
76.814777,0.0055912509,140.79187,128.88261
78.116723,0.0055913879,140.43095,129.24033
79.418668,0.0055915263,140.07799,129.59192
80.720613,0.0055916624,139.73166,129.93857
82.022559,0.005591794,139.39276,130.27942
83.324504,0.0055919277,139.0607,130.61496
84.62645,0.0055920588,138.73558,130.945
85.928395,0.0055921939,138.41634,131.27055
87.23034,0.0055923159,138.10408,131.5904
88.532286,0.0055924389,137.79706,131.90627
89.834231,0.0055925594,137.4968,132.21651
91.136176,0.0055926838,137.20245,132.52193
92.438122,0.0055928019,136.91367,132.82283
93.740067,0.005592923,136.63014,133.11945
95.042013,0.0055930464,136.35226,133.41133
96.343958,0.0055931563,136.07982,133.69864
97.645903,0.0055932744,135.81227,133.98188
98.947849,0.0055933858,135.54958,134.26105
100.24979,0.0055934995,135.29228,134.5355
101.55174,0.0055936051,135.03917,134.80649
102.85368,0.0055936951,134.79099,135.07317
104.15563,0.0055938031,134.54767,135.33556
105.45758,0.0055939057,134.30867,135.59419
106.75952,0.0055940088,134.07353,135.84952
108.06147,0.0055941129,133.8429,136.10082
109.36341,0.0055942117,133.61658,136.34824
110.66536,0.0055943162,133.39394,136.59245
111.9673,0.005594415,133.17523,136.83311
113.26925,0.0055945157,132.96045,137.07021
114.57119,0.0055946183,132.75017,137.30307
115.87314,0.005594718,132.54243,137.53381
117.17508,0.00559481,132.33891,137.76057
118.47703,0.0055949044,132.13884,137.98415
119.77897,0.0055949964,131.94183,138.20496
121.08092,0.0055950874,131.74904,138.42166
122.38287,0.005595177,131.55869,138.63624
123.68481,0.0055952622,131.37221,138.84704
124.98676,0.0055953537,131.18788,139.05598
126.2887,0.0055954442,131.00784,139.26062
127.59065,0.005595526,130.83006,139.46323
128.89259,0.0055956102,130.6557,139.66247
130.19454,0.0055956954,130.48357,139.85968
131.49648,0.0055957797,130.31482,140.0535
132.79843,0.0055958634,130.14868,140.24481
134.10037,0.0055959423,129.98575,140.43289
135.40232,0.0055960275,129.82436,140.61965
136.70426,0.0055961045,129.66634,140.80295
138.00621,0.0055961825,129.5106,140.98403
139.30816,0.0055962604,129.35764,141.16231
140.6101,0.0055963398,129.20729,141.33793
141.91205,0.0055964105,129.05901,141.51154
143.21399,0.0055964821,128.9131,141.68275
144.51594,0.0055965547,128.76974,141.85134
145.81788,0.0055966249,128.62831,142.01802
147.11983,0.0055967019,128.48979,142.18163
148.42177,0.0055967735,128.35263,142.34397
149.72372,0.0055968389,128.21788,142.50378
151.02566,0.0055969086,128.08546,142.66115
152.32761,0.0055969749,127.95524,142.81623
153.62955,0.0055970388,127.82628,142.97011
154.9315,0.0055971047,127.70007,143.12101
156.23345,0.0055971671,127.57563,143.27007
157.53539,0.0055972363,127.4528,143.41748
158.83734,0.0055973036,127.33218,143.56251
160.13928,0.0055973622,127.21271,143.70644
161.44123,0.0055974319,127.09573,143.8476
162.74317,0.00559749,126.98055,143.98687
164.04512,0.0055975578,126.86694,144.12447
165.34706,0.0055976154,126.75507,144.26019
166.64901,0.0055976672,126.64508,144.39386
167.95095,0,127.06889,143.88003
169.2529,0,127.65671,143.17291
170.55484,0,128.07349,142.67541
171.85679,0,128.46616,142.20958
173.15874,0,128.85349,141.75281
174.46068,0,129.24045,141.29917
175.76263,0,129.62468,140.85135
177.06457,0,130.00879,140.40627
178.36652,0,130.39101,139.96593
179.66846,0,130.77245,139.52901
180.97041,0,131.1525,139.09616
182.27235,0,131.53122,138.66725
183.5743,0,131.90839,138.24251
184.87624,0,132.28436,137.82146
186.17819,0,132.65886,137.4044
187.48013,0,133.0327,136.99037
188.78208,0,133.40471,136.58061
190.08403,0,133.77533,136.1746
191.38597,0,134.14502,135.7718
192.68792,0,134.51207,135.37402
193.98986,0,134.87854,134.97898
195.29181,0,135.24332,134.58785
196.59375,0,135.60706,134.19987
197.8957,0,135.96918,133.81564
199.19764,0,136.32935,133.43546
200.49959,0,136.68889,133.05789
201.80153,0,137.04604,132.68475
203.10348,0,137.40178,132.31496
204.40542,0,137.75624,131.94837
205.70737,0,138.10895,131.58541
207.00932,0,138.46031,131.22562
208.31126,0,138.80956,130.86977
209.61321,0,139.15796,130.51652
210.91515,0,139.50439,130.16696
212.2171,0,139.84872,129.82121
213.51904,0,140.1917,129.47846
214.82099,0,140.53285,129.13915
216.12293,0,140.87276,128.80268
217.42488,0,141.21011,128.47029
218.72682,0,141.54646,128.14043
220.02877,0,141.88033,127.81452
221.33071,0,142.21329,127.49098
222.63266,0,142.54385,127.17122
223.9346,0,142.87317,126.8541
225.23655,0,143.19952,126.54123
226.5385,0,143.52522,126.23038
227.84044,0,143.84869,125.92301
229.14239,0,144.17015,125.61888
230.44433,0,144.48943,125.31812
231.74628,0,144.80714,125.02011
233.04822,0,145.12256,124.72552
234.35017,0,145.43625,124.43377
235.65211,0,145.74744,124.14556
236.95406,0,146.05669,123.86033
238.256,0,146.36372,123.5783
239.55795,0,146.66866,123.29933
240.85989,0,146.97086,123.02398
242.16184,0,147.27121,122.7514
243.46379,0,147.56853,122.48264
244.76573,0,147.86269,122.21777
246.06768,0,148.15446,121.95605
247.36962,0,148.44212,121.69901
248.67157,0,148.72612,121.44618
249.97351,0,149.00487,121.19894
251.27546,0,149.27831,120.95729
252.5774,0,149.54416,120.72315
253.87935,0,149.79973,120.49884
255.18129,0,150.04298,120.28603
256.48324,0,150.26746,120.09024
257.78518,0,150.46964,119.91438
259.08713,0,150.64375,119.7633
260.38908,0,150.78931,119.63726
261.69102,0,150.90688,119.53563
262.99297,0,150.99921,119.45592
264.29491,0,151.0704,119.39452
265.59686,0,151.12343,119.34883
266.8988,0,151.1627,119.31501
268.20075,0,151.19232,119.28951
269.50269,0,151.21581,119.26931
270.80464,0,151.23505,119.25275
272.10658,0,151.25238,119.23785
273.40853,0,151.26857,119.22392
274.71047,0,151.2841,119.21057
276.01242,0,151.29935,119.19747
277.31437,0,151.31506,119.18396
278.61631,0,151.33234,119.16912
279.91826,0,151.35025,119.15373
281.2202,0,151.37,119.13678
282.52215,0,151.39183,119.11803
283.82409,0,151.41792,119.09564
285.12604,0,151.44972,119.06835
286.42798,0,151.49182,119.03225
287.72993,0,151.55376,118.97917
289.03187,0,151.65622,118.89146
290.33382,0,151.81697,118.75407
291.63576,0,152.02505,118.57665
292.93771,0,152.25807,118.37853
294.23966,0,152.50351,118.17049
295.5416,0,152.75432,117.95857
296.84355,0,153.0079,117.74498
298.14549,0,153.26205,117.53161
299.44744,0,153.51732,117.31799
300.74938,0,153.77159,117.10589
302.05133,0,154.02528,116.89494
303.35327,0,154.27803,116.68546
304.65522,0,154.5293,116.47785
305.95716,0,154.77895,116.27224
307.25911,0,155.02747,116.06818
308.56105,0,155.27472,115.8658
309.863,0,155.51974,115.66586
311.16495,0,155.76436,115.46686
312.46689,0,156.00662,115.27036
313.76884,0,156.24706,115.07594
315.07078,0,156.48633,114.88302
316.37273,0,156.72385,114.69209
317.67467,0,156.95898,114.50362
318.97662,0,157.19275,114.31679
320.27856,0,157.42467,114.13197
321.58051,0,157.6552,113.94877
322.88245,0,157.88408,113.7674
324.1844,0,158.11086,113.58819
325.48634,0,158.3353,113.41132
326.78829,0,158.55865,113.23578
328.09024,0,158.77997,113.06232
329.39218,0,158.99988,112.89042
330.69413,0,159.21744,112.72081
331.99607,0,159.43382,112.55256
333.29802,0,159.64771,112.38669
